WaveLenght (nm);Total Irradiance fwhm 0.13 (W/cm2 nm);Fwhm (nm)
350;7.12E-05;0.064
350.01;7.31E-05;
350.02;7.47E-05;
350.03;7.54E-05;
350.04;7.47E-05;
350.05;7.33E-05;
350.06;7.18E-05;
350.07;7.00E-05;
350.08;6.78E-05;
350.09;6.55E-05;
350.1;6.34E-05;
350.11;6.11E-05;
350.12;5.81E-05;
350.13;5.44E-05;
350.14;5.12E-05;
350.15;4.92E-05
350.16;4.84E-05
350.17;4.88E-05
350.18;5.08E-05
350.19;5.50E-05
350.2;6.07E-05
350.21;6.63E-05
350.22;7.11E-05
350.23;7.52E-05
350.24;7.88E-05
350.25;8.10E-05
350.26;8.14E-05
350.27;8.05E-05
350.28;7.86E-05
350.29;7.57E-05
350.3;7.14E-05
350.31;6.58E-05
350.32;6.04E-05
350.33;5.63E-05
350.34;5.40E-05
350.35;5.41E-05
350.36;5.68E-05
350.37;6.20E-05
350.38;6.78E-05
350.39;7.27E-05
350.4;7.59E-05
350.41;7.72E-05
350.42;7.64E-05
350.43;7.43E-05
350.44;7.22E-05
350.45;7.10E-05
350.46;7.13E-05
350.47;7.27E-05
350.48;7.46E-05
350.49;7.60E-05
350.5;7.69E-05
350.51;7.69E-05
350.52;7.56E-05
350.53;7.28E-05
350.54;6.90E-05
350.55;6.52E-05
350.56;6.19E-05
350.57;5.91E-05
350.58;5.70E-05
350.59;5.63E-05
350.6;5.76E-05
350.61;6.04E-05
350.62;6.36E-05
350.63;6.67E-05
350.64;6.94E-05
350.65;7.16E-05
350.66;7.26E-05
350.67;7.19E-05
350.68;6.98E-05
350.69;6.67E-05
350.7;6.27E-05
350.71;5.79E-05
350.72;5.32E-05
350.73;4.95E-05
350.74;4.75E-05
350.75;4.70E-05
350.76;4.79E-05
350.77;4.99E-05
350.78;5.24E-05
350.79;5.44E-05
350.8;5.52E-05
350.81;5.54E-05
350.82;5.55E-05
350.83;5.60E-05
350.84;5.73E-05
350.85;5.96E-05
350.86;6.24E-05
350.87;6.54E-05
350.88;6.80E-05
350.89;6.91E-05
350.9;6.79E-05
350.91;6.50E-05
350.92;6.20E-05
350.93;5.97E-05
350.94;5.86E-05
350.95;5.93E-05
350.96;6.23E-05
350.97;6.71E-05
350.98;7.23E-05
350.99;7.67E-05
351;7.99E-05
351.01;8.16E-05
351.02;8.18E-05
351.03;8.04E-05
351.04;7.78E-05
351.05;7.43E-05
351.06;6.98E-05
351.07;6.39E-05
351.08;5.75E-05
351.09;5.15E-05
351.1;4.61E-05
351.11;4.15E-05
351.12;3.79E-05
351.13;3.63E-05
351.14;3.74E-05
351.15;4.06E-05
351.16;4.50E-05
351.17;5.01E-05
351.18;5.58E-05
351.19;6.19E-05
351.2;6.70E-05
351.21;6.97E-05
351.22;6.99E-05
351.23;6.86E-05
351.24;6.63E-05
351.25;6.31E-05
351.26;5.95E-05
351.27;5.68E-05
351.28;5.60E-05
351.29;5.68E-05
351.3;5.81E-05
351.31;5.90E-05
351.32;5.93E-05
351.33;5.90E-05
351.34;5.74E-05
351.35;5.45E-05
351.36;5.14E-05
351.37;4.94E-05
351.38;4.86E-05
351.39;4.80E-05
351.4;4.78E-05
351.41;4.79E-05
351.42;4.74E-05
351.43;4.52E-05
351.44;4.16E-05
351.45;3.81E-05
351.46;3.56E-05
351.47;3.45E-05
351.48;3.54E-05
351.49;3.86E-05
351.5;4.37E-05
351.51;4.90E-05
351.52;5.28E-05
351.53;5.41E-05
351.54;5.26E-05
351.55;4.84E-05
351.56;4.24E-05
351.57;3.60E-05
351.58;3.08E-05
351.59;2.79E-05
351.6;2.79E-05
351.61;3.11E-05
351.62;3.68E-05
351.63;4.41E-05
351.64;5.20E-05
351.65;5.96E-05
351.66;6.58E-05
351.67;6.99E-05
351.68;7.15E-05
351.69;7.08E-05
351.7;6.83E-05
351.71;6.52E-05
351.72;6.24E-05
351.73;6.08E-05
351.74;6.07E-05
351.75;6.25E-05
351.76;6.56E-05
351.77;6.86E-05
351.78;7.07E-05
351.79;7.17E-05
351.8;7.19E-05
351.81;7.15E-05
351.82;7.13E-05
351.83;7.22E-05
351.84;7.46E-05
351.85;7.82E-05
351.86;8.18E-05
351.87;8.47E-05
351.88;8.61E-05
351.89;8.57E-05
351.9;8.33E-05
351.91;7.91E-05
351.92;7.39E-05
351.93;6.89E-05
351.94;6.49E-05
351.95;6.24E-05
351.96;6.17E-05
351.97;6.31E-05
351.98;6.69E-05
351.99;7.20E-05
352;7.74E-05
352.01;8.15E-05
352.02;8.35E-05
352.03;8.32E-05
352.04;8.04E-05
352.05;7.51E-05
352.06;6.82E-05
352.07;6.15E-05
352.08;5.68E-05
352.09;5.44E-05
352.1;5.40E-05
352.11;5.55E-05
352.12;5.86E-05
352.13;6.27E-05
352.14;6.62E-05
352.15;6.81E-05
352.16;6.80E-05
352.17;6.63E-05
352.18;6.33E-05
352.19;5.94E-05
352.2;5.47E-05
352.21;4.99E-05
352.22;4.58E-05
352.23;4.33E-05
352.24;4.25E-05
352.25;4.33E-05
352.26;4.52E-05
352.27;4.85E-05
352.28;5.29E-05
352.29;5.82E-05
352.3;6.34E-05
352.31;6.76E-05
352.32;7.08E-05
352.33;7.31E-05
352.34;7.42E-05
352.35;7.34E-05
352.36;7.05E-05
352.37;6.62E-05
352.38;6.10E-05
352.39;5.55E-05
352.4;5.00E-05
352.41;4.52E-05
352.42;4.16E-05
352.43;3.95E-05
352.44;3.89E-05
352.45;3.91E-05
352.46;3.91E-05
352.47;3.86E-05
352.48;3.73E-05
352.49;3.49E-05
352.5;3.13E-05
352.51;2.70E-05
352.52;2.32E-05
352.53;2.08E-05
352.54;2.02E-05
352.55;2.18E-05
352.56;2.60E-05
352.57;3.26E-05
352.58;4.08E-05
352.59;4.96E-05
352.6;5.82E-05
352.61;6.58E-05
352.62;7.13E-05
352.63;7.43E-05
352.64;7.43E-05
352.65;7.12E-05
352.66;6.53E-05
352.67;5.72E-05
352.68;4.79E-05
352.69;3.84E-05
352.7;3.00E-05
352.71;2.32E-05
352.72;1.85E-05
352.73;1.60E-05
352.74;1.59E-05
352.75;1.82E-05
352.76;2.28E-05
352.77;2.92E-05
352.78;3.69E-05
352.79;4.56E-05
352.8;5.44E-05
352.81;6.19E-05
352.82;6.66E-05
352.83;6.77E-05
352.84;6.58E-05
352.85;6.21E-05
352.86;5.73E-05
352.87;5.23E-05
352.88;4.89E-05
352.89;4.87E-05
352.9;5.20E-05
352.91;5.75E-05
352.92;6.40E-05
352.93;7.06E-05
352.94;7.65E-05
352.95;8.03E-05
352.96;8.19E-05
352.97;8.18E-05
352.98;8.05E-05
352.99;7.86E-05
353;7.68E-05
353.01;7.50E-05
353.02;7.29E-05
353.03;7.01E-05
353.04;6.66E-05
353.05;6.34E-05
353.06;6.09E-05
353.07;5.96E-05
353.08;5.96E-05
353.09;6.10E-05
353.1;6.31E-05
353.11;6.50E-05
353.12;6.60E-05
353.13;6.59E-05
353.14;6.53E-05
353.15;6.50E-05
353.16;6.58E-05
353.17;6.76E-05
353.18;7.02E-05
353.19;7.32E-05
353.2;7.63E-05
353.21;7.83E-05
353.22;7.83E-05
353.23;7.61E-05
353.24;7.24E-05
353.25;6.80E-05
353.26;6.35E-05
353.27;5.98E-05
353.28;5.76E-05
353.29;5.77E-05
353.3;6.00E-05
353.31;6.39E-05
353.32;6.83E-05
353.33;7.20E-05
353.34;7.38E-05
353.35;7.30E-05
353.36;6.95E-05
353.37;6.37E-05
353.38;5.66E-05
353.39;4.94E-05
353.4;4.37E-05
353.41;4.09E-05
353.42;4.13E-05
353.43;4.48E-05
353.44;5.07E-05
353.45;5.82E-05
353.46;6.63E-05
353.47;7.40E-05
353.48;8.05E-05
353.49;8.52E-05
353.5;8.80E-05
353.51;8.87E-05
353.52;8.73E-05
353.53;8.36E-05
353.54;7.78E-05
353.55;7.10E-05
353.56;6.48E-05
353.57;5.98E-05
353.58;5.59E-05
353.59;5.36E-05
353.6;5.33E-05
353.61;5.46E-05
353.62;5.61E-05
353.63;5.74E-05
353.64;5.84E-05
353.65;5.97E-05
353.66;6.10E-05
353.67;6.22E-05
353.68;6.31E-05
353.69;6.31E-05
353.7;6.16E-05
353.71;5.91E-05
353.72;5.59E-05
353.73;5.23E-05
353.74;4.90E-05
353.75;4.73E-05
353.76;4.82E-05
353.77;5.13E-05
353.78;5.56E-05
353.79;6.00E-05
353.8;6.37E-05
353.81;6.59E-05
353.82;6.56E-05
353.83;6.31E-05
353.84;5.89E-05
353.85;5.43E-05
353.86;5.00E-05
353.87;4.65E-05
353.88;4.44E-05
353.89;4.42E-05
353.9;4.55E-05
353.91;4.78E-05
353.92;5.09E-05
353.93;5.47E-05
353.94;5.92E-05
353.95;6.37E-05
353.96;6.83E-05
353.97;7.31E-05
353.98;7.78E-05
353.99;8.23E-05
354;8.62E-05
354.01;8.92E-05
354.02;9.11E-05
354.03;9.17E-05
354.04;9.06E-05
354.05;8.81E-05
354.06;8.45E-05
354.07;8.02E-05
354.08;7.62E-05
354.09;7.32E-05
354.1;7.12E-05
354.11;7.02E-05
354.12;7.01E-05
354.14;7.04E-05
354.15;7.02E-05
354.16;6.84E-05
354.17;6.55E-05
354.18;6.25E-05
354.19;6.02E-05
354.2;5.86E-05
354.21;5.82E-05
354.22;6.01E-05
354.23;6.38E-05
354.24;6.77E-05
354.25;6.99E-05
354.26;6.98E-05
354.27;6.75E-05
354.28;6.31E-05
354.29;5.71E-05
354.3;5.08E-05
354.31;4.58E-05
354.32;4.35E-05
354.33;4.41E-05
354.34;4.72E-05
354.35;5.19E-05
354.36;5.73E-05
354.37;6.29E-05
354.38;6.80E-05
354.39;7.20E-05
354.4;7.47E-05
354.41;7.64E-05
354.42;7.73E-05
354.43;7.74E-05
354.44;7.70E-05
354.45;7.69E-05
354.46;7.72E-05
354.47;7.80E-05
354.48;7.97E-05
354.49;8.22E-05
354.5;8.45E-05
354.51;8.58E-05
354.52;8.61E-05
354.53;8.57E-05
354.54;8.43E-05
354.55;8.17E-05
354.56;7.85E-05
354.57;7.60E-05
354.58;7.45E-05
354.59;7.35E-05
354.6;7.25E-05
354.61;7.13E-05
354.62;7.01E-05
354.63;6.87E-05
354.64;6.69E-05
354.65;6.49E-05
354.66;6.31E-05
354.67;6.22E-05
354.68;6.28E-05
354.69;6.50E-05
354.7;6.82E-05
354.71;7.16E-05
354.72;7.45E-05
354.73;7.69E-05
354.74;7.87E-05
354.75;7.94E-05
354.76;7.83E-05
354.77;7.61E-05
354.78;7.40E-05
354.79;7.25E-05
354.8;7.12E-05
354.81;6.97E-05
354.82;6.83E-05
354.83;6.71E-05
354.84;6.54E-05
354.85;6.22E-05
354.86;5.72E-05
354.87;5.11E-05
354.88;4.47E-05
354.89;3.91E-05
354.9;3.51E-05
354.91;3.39E-05
354.92;3.59E-05
354.93;4.06E-05
354.94;4.68E-05
354.95;5.36E-05
354.96;5.98E-05
354.97;6.46E-05
354.98;6.73E-05
354.99;6.84E-05
355;6.88E-05
355.01;6.96E-05
355.02;7.07E-05
355.03;7.18E-05
355.04;7.29E-05
355.05;7.41E-05
355.06;7.51E-05
355.07;7.52E-05
355.08;7.45E-05
355.09;7.39E-05
355.1;7.39E-05
355.11;7.43E-05
355.12;7.48E-05
355.13;7.58E-05
355.14;7.70E-05
355.15;7.80E-05
355.16;7.84E-05
355.17;7.88E-05
355.18;7.94E-05
355.19;7.98E-05
355.2;7.92E-05
355.21;7.79E-05
355.22;7.67E-05
355.23;7.56E-05
355.24;7.41E-05
355.25;7.22E-05
355.26;7.06E-05
355.27;7.00E-05
355.28;7.00E-05
355.29;7.00E-05
355.3;7.02E-05
355.31;7.10E-05
355.32;7.19E-05
355.33;7.20E-05
355.34;7.08E-05
355.35;6.86E-05
355.36;6.57E-05
355.37;6.22E-05
355.38;5.87E-05
355.39;5.60E-05
355.4;5.42E-05
355.41;5.32E-05
355.42;5.23E-05
355.43;5.13E-05
355.44;5.05E-05
355.45;5.01E-05
355.46;5.00E-05
355.47;5.04E-05
355.48;5.19E-05
355.49;5.38E-05
355.5;5.52E-05
355.51;5.55E-05
355.52;5.45E-05
355.53;5.25E-05
355.54;4.92E-05
355.55;4.51E-05
355.56;4.13E-05
355.57;3.88E-05
355.58;3.79E-05
355.59;3.85E-05
355.6;4.10E-05
355.61;4.57E-05
355.62;5.21E-05
355.63;5.89E-05
355.64;6.54E-05
355.65;7.15E-05
355.66;7.69E-05
355.67;8.09E-05
355.68;8.33E-05
355.69;8.42E-05
355.7;8.39E-05
355.71;8.19E-05
355.72;7.78E-05
355.73;7.20E-05
355.74;6.50E-05
355.75;5.76E-05
355.76;5.09E-05
355.77;4.62E-05
355.78;4.47E-05
355.79;4.69E-05
355.8;5.24E-05
355.81;6.06E-05
355.82;6.98E-05
355.83;7.89E-05
355.84;8.67E-05
355.85;9.23E-05
355.86;9.55E-05
355.87;9.64E-05
355.88;9.50E-05
355.89;9.16E-05
355.9;8.62E-05
355.91;7.93E-05
355.92;7.16E-05
355.93;6.40E-05
355.94;5.72E-05
355.95;5.23E-05
355.96;5.00E-05
355.97;5.05E-05
355.98;5.32E-05
355.99;5.70E-05
356;6.09E-05
356.01;6.41E-05
356.02;6.66E-05
356.03;6.81E-05
356.04;6.87E-05
356.05;6.85E-05
356.06;6.83E-05
356.07;6.81E-05
356.08;6.76E-05
356.09;6.65E-05
356.1;6.51E-05
356.11;6.35E-05
356.12;6.15E-05
356.13;5.91E-05
356.14;5.65E-05
356.15;5.42E-05
356.16;5.26E-05
356.17;5.22E-05
356.18;5.32E-05
356.19;5.58E-05
356.2;5.97E-05
356.21;6.38E-05
356.22;6.68E-05
356.23;6.79E-05
356.24;6.69E-05
356.25;6.43E-05
356.26;6.07E-05
356.27;5.71E-05
356.28;5.54E-05
356.29;5.64E-05
356.3;5.93E-05
356.31;6.30E-05
356.32;6.72E-05
356.33;7.15E-05
356.34;7.50E-05
356.35;7.73E-05
356.36;7.88E-05
356.37;8.06E-05
356.38;8.31E-05
356.39;8.56E-05
356.4;8.82E-05
356.41;9.04E-05
356.42;9.18E-05
356.43;9.20E-05
356.44;9.09E-05
356.45;8.88E-05
356.46;8.57E-05
356.47;8.22E-05
356.48;7.93E-05
356.49;7.71E-05
356.5;7.51E-05
356.51;7.29E-05
356.52;7.06E-05
356.53;6.83E-05
356.54;6.51E-05
356.55;6.07E-05
356.56;5.57E-05
356.57;5.08E-05
356.58;4.58E-05
356.59;4.03E-05
356.6;3.48E-05
356.61;2.99E-05
356.62;2.58E-05
356.63;2.25E-05
356.64;2.04E-05
356.65;1.99E-05
356.66;2.08E-05
356.67;2.25E-05
356.68;2.42E-05
356.69;2.55E-05
356.7;2.63E-05
356.71;2.67E-05
356.72;2.71E-05
356.73;2.81E-05
356.74;3.00E-05
356.75;3.31E-05
356.76;3.73E-05
356.77;4.21E-05
356.78;4.67E-05
356.79;5.05E-05
356.8;5.33E-05
356.81;5.51E-05
356.82;5.56E-05
356.83;5.53E-05
356.84;5.48E-05
356.85;5.50E-05
356.86;5.61E-05
356.87;5.82E-05
356.88;6.12E-05
356.89;6.50E-05
356.9;6.86E-05
356.91;7.16E-05
356.92;7.33E-05
356.93;7.34E-05
356.94;7.16E-05
356.95;6.87E-05
356.96;6.52E-05
356.97;6.13E-05
356.98;5.69E-05
356.99;5.22E-05
357;4.81E-05
357.01;4.44E-05
357.02;4.07E-05
357.03;3.65E-05
357.04;3.23E-05
357.05;2.85E-05
357.06;2.51E-05
357.07;2.16E-05
357.08;1.81E-05
357.09;1.54E-05
357.1;1.40E-05
357.11;1.39E-05
357.12;1.52E-05
357.13;1.83E-05
357.14;2.32E-05
357.15;2.92E-05
357.16;3.57E-05
357.17;4.20E-05
357.18;4.77E-05
357.19;5.23E-05
357.2;5.55E-05
357.21;5.70E-05
357.22;5.73E-05
357.23;5.66E-05
357.24;5.47E-05
357.25;5.17E-05
357.26;4.84E-05
357.27;4.58E-05
357.28;4.40E-05
357.29;4.30E-05
357.3;4.29E-05
357.31;4.38E-05
357.32;4.53E-05
357.33;4.69E-05
357.34;4.86E-05
357.35;5.08E-05
357.36;5.36E-05
357.37;5.75E-05
357.38;6.20E-05
357.39;6.64E-05
357.4;6.97E-05
357.41;7.13E-05
357.42;7.08E-05
357.43;6.81E-05
357.44;6.34E-05
357.45;5.79E-05
357.46;5.28E-05
357.47;4.88E-05
357.48;4.65E-05
357.49;4.65E-05
357.5;4.94E-05
357.51;5.43E-05
357.52;5.96E-05
357.53;6.46E-05
357.54;6.87E-05
357.55;7.09E-05
357.56;7.00E-05
357.57;6.57E-05
357.58;5.91E-05
357.59;5.20E-05
357.6;4.60E-05
357.61;4.22E-05
357.62;4.12E-05
357.63;4.33E-05
357.64;4.82E-05
357.65;5.47E-05
357.66;6.09E-05
357.67;6.55E-05
357.68;6.77E-05
357.69;6.80E-05
357.7;6.77E-05
357.71;6.70E-05
357.72;6.60E-05
357.73;6.48E-05
357.74;6.41E-05
357.75;6.37E-05
357.76;6.28E-05
357.77;6.07E-05
357.78;5.84E-05
357.79;5.75E-05
357.8;5.83E-05
357.81;6.08E-05
357.82;6.43E-05
357.83;6.85E-05
357.84;7.28E-05
357.85;7.60E-05
357.86;7.73E-05
357.87;7.64E-05
357.88;7.35E-05
357.89;6.96E-05
357.9;6.51E-05
357.91;6.00E-05
357.92;5.44E-05
357.93;4.90E-05
357.94;4.44E-05
357.95;4.10E-05
357.96;3.90E-05
357.97;3.89E-05
357.98;4.07E-05
357.99;4.41E-05
358;4.84E-05
358.01;5.29E-05
358.02;5.67E-05
358.03;5.93E-05
358.04;6.06E-05
358.05;6.09E-05
358.06;6.04E-05
358.07;5.89E-05
358.08;5.69E-05
358.09;5.49E-05
358.1;5.30E-05
358.11;5.10E-05
358.12;4.85E-05
358.13;4.56E-05
358.14;4.22E-05
358.15;3.81E-05
358.16;3.34E-05
358.17;2.83E-05
358.18;2.32E-05
358.19;1.87E-05
358.2;1.51E-05
358.21;1.27E-05
358.22;1.14E-05
358.23;1.13E-05
358.24;1.25E-05
358.25;1.45E-05
358.26;1.71E-05
358.27;2.00E-05
358.28;2.30E-05
358.29;2.63E-05
358.3;2.93E-05
358.31;3.17E-05
358.32;3.36E-05
358.33;3.58E-05
358.34;3.85E-05
358.35;4.13E-05
358.36;4.43E-05
358.37;4.77E-05
358.38;5.13E-05
358.39;5.44E-05
358.4;5.64E-05
358.41;5.72E-05
358.42;5.68E-05
358.43;5.56E-05
358.44;5.40E-05
358.45;5.25E-05
358.46;5.13E-05
358.47;5.05E-05
358.48;5.00E-05
358.49;4.96E-05
358.5;4.87E-05
358.51;4.69E-05
358.52;4.41E-05
358.53;4.06E-05
358.54;3.66E-05
358.55;3.23E-05
358.56;2.81E-05
358.57;2.43E-05
358.58;2.12E-05
358.59;1.89E-05
358.6;1.72E-05
358.61;1.59E-05
358.62;1.50E-05
358.63;1.46E-05
358.64;1.45E-05
358.65;1.48E-05
358.66;1.55E-05
358.67;1.71E-05
358.68;2.01E-05
358.69;2.44E-05
358.7;2.93E-05
358.71;3.42E-05
358.72;3.86E-05
358.73;4.19E-05
358.74;4.28E-05
358.75;4.09E-05
358.76;3.69E-05
358.77;3.19E-05
358.78;2.71E-05
358.79;2.30E-05
358.8;2.03E-05
358.81;1.97E-05
358.82;2.11E-05
358.83;2.38E-05
358.84;2.72E-05
358.85;3.10E-05
358.86;3.50E-05
358.87;3.93E-05
358.88;4.36E-05
358.89;4.79E-05
358.9;5.17E-05
358.91;5.48E-05
358.92;5.70E-05
358.93;5.81E-05
358.94;5.79E-05
358.95;5.61E-05
358.96;5.38E-05
358.97;5.16E-05
358.98;4.99E-05
358.99;4.83E-05
359;4.70E-05
359.01;4.62E-05
359.02;4.60E-05
359.03;4.56E-05
359.04;4.48E-05
359.05;4.38E-05
359.06;4.32E-05
359.07;4.29E-05
359.08;4.30E-05
359.09;4.33E-05
359.1;4.41E-05
359.11;4.56E-05
359.12;4.79E-05
359.13;5.08E-05
359.14;5.46E-05
359.15;5.93E-05
359.16;6.45E-05
359.17;6.94E-05
359.18;7.29E-05
359.19;7.45E-05
359.2;7.45E-05
359.21;7.35E-05
359.22;7.18E-05
359.23;7.05E-05
359.24;7.05E-05
359.25;7.25E-05
359.26;7.62E-05
359.27;8.08E-05
359.28;8.53E-05
359.29;8.90E-05
359.3;9.13E-05
359.31;9.21E-05
359.32;9.13E-05
359.33;8.90E-05
359.34;8.55E-05
359.35;8.17E-05
359.36;7.86E-05
359.37;7.58E-05
359.38;7.28E-05
359.39;6.92E-05
359.4;6.53E-05
359.41;6.10E-05
359.42;5.61E-05
359.43;5.13E-05
359.44;4.75E-05
359.45;4.65E-05
359.46;4.85E-05
359.47;5.34E-05
359.48;6.04E-05
359.49;6.86E-05
359.5;7.65E-05
359.51;8.23E-05
359.52;8.53E-05
359.53;8.53E-05
359.54;8.26E-05
359.55;7.81E-05
359.56;7.29E-05
359.57;6.82E-05
359.58;6.48E-05
359.59;6.31E-05
359.6;6.29E-05
359.61;6.39E-05
359.62;6.56E-05
359.63;6.70E-05
359.64;6.77E-05
359.65;6.74E-05
359.66;6.60E-05
359.67;6.33E-05
359.68;5.99E-05
359.69;5.65E-05
359.7;5.38E-05
359.71;5.21E-05
359.72;5.21E-05
359.73;5.37E-05
359.74;5.64E-05
359.75;5.95E-05
359.76;6.27E-05
359.77;6.59E-05
359.78;6.89E-05
359.79;7.15E-05
359.8;7.34E-05
359.81;7.49E-05
359.82;7.57E-05
359.83;7.55E-05
359.84;7.42E-05
359.85;7.20E-05
359.86;6.98E-05
359.87;6.87E-05
359.88;6.95E-05
359.89;7.20E-05
359.9;7.56E-05
359.91;7.94E-05
359.92;8.28E-05
359.93;8.51E-05
359.94;8.56E-05
359.95;8.43E-05
359.96;8.21E-05
359.97;8.02E-05
359.98;7.90E-05
359.99;7.84E-05
360;7.79E-05
360.01;7.74E-05
360.02;7.71E-05
360.03;7.70E-05
360.04;7.71E-05
360.05;7.80E-05
360.06;8.02E-05
360.07;8.40E-05
360.08;8.86E-05
360.09;9.28E-05
360.1;9.52E-05
360.11;9.53E-05
360.12;9.31E-05
360.13;8.88E-05
360.14;8.34E-05
360.15;7.83E-05
360.16;7.47E-05
360.17;7.31E-05
360.18;7.35E-05
360.19;7.55E-05
360.2;7.81E-05
360.21;8.04E-05
360.22;8.18E-05
360.23;8.25E-05
360.24;8.22E-05
360.25;8.05E-05
360.26;7.76E-05
360.27;7.37E-05
360.28;6.91E-05
360.29;6.35E-05
360.3;5.74E-05
360.31;5.18E-05
360.32;4.71E-05
360.33;4.35E-05
360.34;4.15E-05
360.35;4.10E-05
360.36;4.20E-05
360.37;4.37E-05
360.38;4.58E-05
360.39;4.80E-05
360.4;4.95E-05
360.41;4.97E-05
360.42;4.89E-05
360.43;4.78E-05
360.44;4.70E-05
360.45;4.68E-05
360.46;4.79E-05
360.47;5.06E-05
360.48;5.48E-05
360.49;5.97E-05
360.5;6.42E-05
360.51;6.70E-05
360.52;6.77E-05
360.53;6.63E-05
360.54;6.37E-05
360.55;6.03E-05
360.56;5.61E-05
360.57;5.14E-05
360.58;4.69E-05
360.59;4.28E-05
360.6;3.89E-05
360.61;3.52E-05
360.62;3.28E-05
360.63;3.26E-05
360.64;3.52E-05
360.65;4.05E-05
360.66;4.81E-05
360.67;5.66E-05
360.68;6.46E-05
360.69;7.05E-05
360.7;7.34E-05
360.71;7.28E-05
360.72;6.88E-05
360.73;6.26E-05
360.74;5.59E-05
360.75;5.02E-05
360.76;4.72E-05
360.77;4.74E-05
360.78;5.09E-05
360.79;5.68E-05
360.8;6.38E-05
360.81;7.08E-05
360.82;7.68E-05
360.83;8.12E-05
360.84;8.35E-05
360.85;8.42E-05
360.86;8.37E-05
360.87;8.21E-05
360.88;7.92E-05
360.89;7.47E-05
360.9;6.89E-05
360.91;6.20E-05
360.92;5.44E-05
360.93;4.66E-05
360.94;3.90E-05
360.95;3.24E-05
360.96;2.71E-05
360.97;2.33E-05
360.98;2.09E-05
360.99;2.00E-05
361;2.09E-05
361.01;2.34E-05
361.02;2.72E-05
361.03;3.17E-05
361.04;3.65E-05
361.05;4.11E-05
361.06;4.43E-05
361.07;4.54E-05
361.08;4.45E-05
361.09;4.19E-05
361.1;3.81E-05
361.11;3.38E-05
361.12;3.06E-05
361.13;2.94E-05
361.14;3.05E-05
361.15;3.39E-05
361.16;3.94E-05
361.17;4.65E-05
361.18;5.42E-05
361.19;6.09E-05
361.2;6.61E-05
361.21;6.99E-05
361.22;7.26E-05
361.23;7.34E-05
361.24;7.21E-05
361.25;6.93E-05
361.26;6.59E-05
361.27;6.28E-05
361.28;6.00E-05
361.29;5.79E-05
361.3;5.72E-05
361.31;5.81E-05
361.32;6.02E-05
361.33;6.24E-05
361.34;6.35E-05
361.35;6.28E-05
361.36;6.04E-05
361.37;5.72E-05
361.38;5.40E-05
361.39;5.13E-05
361.4;4.98E-05
361.41;5.02E-05
361.42;5.23E-05
361.43;5.54E-05
361.44;5.85E-05
361.45;6.17E-05
361.46;6.51E-05
361.47;6.86E-05
361.48;7.20E-05
361.49;7.57E-05
361.5;7.96E-05
361.51;8.26E-05
361.52;8.41E-05
361.53;8.38E-05
361.54;8.25E-05
361.55;8.07E-05
361.56;7.88E-05
361.57;7.68E-05
361.58;7.56E-05
361.59;7.60E-05
361.6;7.72E-05
361.61;7.82E-05
361.62;7.86E-05
361.63;7.90E-05
361.64;7.88E-05
361.65;7.73E-05
361.66;7.44E-05
361.67;7.11E-05
361.68;6.81E-05
361.69;6.54E-05
361.7;6.34E-05
361.71;6.34E-05
361.72;6.60E-05
361.73;7.06E-05
361.74;7.64E-05
361.75;8.25E-05
361.76;8.82E-05
361.77;9.26E-05
361.78;9.48E-05
361.79;9.49E-05
361.8;9.32E-05
361.81;8.99E-05
361.82;8.55E-05
361.83;7.99E-05
361.84;7.35E-05
361.85;6.66E-05
361.86;5.93E-05
361.87;5.18E-05
361.88;4.46E-05
361.89;3.82E-05
361.9;3.30E-05
361.91;2.87E-05
361.92;2.50E-05
361.93;2.20E-05
361.94;1.96E-05
361.95;1.78E-05
361.96;1.63E-05
361.97;1.51E-05
361.98;1.44E-05
361.99;1.44E-05
362;1.50E-05
362.01;1.60E-05
362.02;1.72E-05
362.03;1.87E-05
362.04;2.06E-05
362.05;2.32E-05
362.06;2.64E-05
362.07;2.99E-05
362.08;3.36E-05
362.09;3.74E-05
362.1;4.14E-05
362.11;4.52E-05
362.12;4.85E-05
362.13;5.09E-05
362.14;5.33E-05
362.15;5.58E-05
362.16;5.80E-05
362.17;5.93E-05
362.18;5.97E-05
362.19;5.95E-05
362.2;5.86E-05
362.21;5.68E-05
362.22;5.47E-05
362.23;5.29E-05
362.24;5.18E-05
362.25;5.15E-05
362.26;5.22E-05
362.27;5.37E-05
362.28;5.53E-05
362.29;5.65E-05
362.3;5.79E-05
362.31;6.06E-05
362.32;6.44E-05
362.33;6.89E-05
362.34;7.38E-05
362.35;7.91E-05
362.36;8.38E-05
362.37;8.64E-05
362.38;8.62E-05
362.39;8.37E-05
362.4;7.98E-05
362.41;7.54E-05
362.42;7.10E-05
362.43;6.76E-05
362.44;6.54E-05
362.45;6.41E-05
362.46;6.32E-05
362.47;6.22E-05
362.48;6.14E-05
362.49;6.10E-05
362.5;6.12E-05
362.51;6.15E-05
362.52;6.19E-05
362.53;6.22E-05
362.54;6.22E-05
