wl (nm); Emeas; Emod_sc - Retrieved values (SS = -0.118 nm, FWHM =  5.778 nm); Emod_sc - Nominal values (SS = 0 nm, FWHM =  3.500 nm)
350.00000; 0.40367911; 0.65750818; 0.64679068
351.00000; 0.41272777; 0.63083523; 0.63299022
352.00000; 0.41572779; 0.61655577; 0.62207825
353.00000; 0.41777473; 0.62036739; 0.61379380
354.00000; 0.41845894; 0.62976864; 0.60591125
355.00000; 0.41861715; 0.62499266; 0.59611379
356.00000; 0.41904921; 0.59911077; 0.58483640
357.00000; 0.42010730; 0.56722893; 0.57531378
358.00000; 0.42342574; 0.55427994; 0.57145472
359.00000; 0.42818020; 0.56857561; 0.57512477
360.00000; 0.43580580; 0.59252342; 0.58535864
361.00000; 0.44337975; 0.60925412; 0.59983819
362.00000; 0.45099546; 0.62105519; 0.61676512
363.00000; 0.46252470; 0.63554953; 0.63528701
364.00000; 0.47491055; 0.65756271; 0.65449480
365.00000; 0.48683250; 0.68680654; 0.67230076
366.00000; 0.49606338; 0.71178398; 0.68640892
367.00000; 0.50358200; 0.71952000; 0.69436670
368.00000; 0.50763545; 0.71468268; 0.69518503
369.00000; 0.51228477; 0.70842374; 0.68903370
370.00000; 0.51790162; 0.70021972; 0.67684283
371.00000; 0.51832031; 0.68203612; 0.66061442
372.00000; 0.51821914; 0.65086685; 0.64420087
373.00000; 0.52172765; 0.61669356; 0.63310304
374.00000; 0.52453309; 0.60093207; 0.63230488
375.00000; 0.52678005; 0.61873731; 0.64291995
376.00000; 0.52619842; 0.66489840; 0.66093056
377.00000; 0.52588293; 0.71467836; 0.67775017
378.00000; 0.52608299; 0.73846319; 0.68446574
379.00000; 0.52385408; 0.72587832; 0.67594740
380.00000; 0.52101565; 0.68960021; 0.65296589
381.00000; 0.51808355; 0.63834789; 0.62162365
382.00000; 0.51565981; 0.57964114; 0.59078308
383.00000; 0.51363371; 0.53950038; 0.56862233
384.00000; 0.51429893; 0.53703674; 0.55980685
385.00000; 0.51511856; 0.55743129; 0.56467040
386.00000; 0.51604408; 0.57776183; 0.58100889
387.00000; 0.52254751; 0.59672396; 0.60537366
388.00000; 0.53026810; 0.62987693; 0.63318638
389.00000; 0.53519447; 0.68250830; 0.65807743
390.00000; 0.54259045; 0.73041373; 0.67315287
391.00000; 0.55179500; 0.73379030; 0.67489624
392.00000; 0.55835878; 0.68330667; 0.66657789
393.00000; 0.56887969; 0.62792596; 0.65743094
394.00000; 0.58685355; 0.62117549; 0.65792838
395.00000; 0.60907068; 0.64873865; 0.67503158
396.00000; 0.63413745; 0.67466169; 0.71157516
397.00000; 0.66936079; 0.72133821; 0.76544477
398.00000; 0.70591863; 0.81652041; 0.83008213
399.00000; 0.74326159; 0.92534195; 0.89530197
400.00000; 0.78001393; 0.99937025; 0.95056651
401.00000; 0.81456008; 1.0316583; 0.98920207
402.00000; 0.84546933; 1.0384097; 1.0104568
403.00000; 0.87359551; 1.0325258; 1.0183494
404.00000; 0.89865529; 1.0217375; 1.0189477
405.00000; 0.91049993; 1.0115603; 1.0180232
406.00000; 0.92155613; 1.0068116; 1.0196622
407.00000; 0.93207546; 1.0134325; 1.0257897
408.00000; 0.93966443; 1.0314342; 1.0361470
409.00000; 0.94753343; 1.0501663; 1.0489698
410.00000; 0.95608784; 1.0650632; 1.0619999
411.00000; 0.96571593; 1.0801915; 1.0733456
412.00000; 0.97548129; 1.0906390; 1.0819131
413.00000; 0.98187384; 1.0916948; 1.0873683
414.00000; 0.98875062; 1.0921458; 1.0896934
415.00000; 0.99602804; 1.0971882; 1.0887217
416.00000; 1.0006212; 1.0977054; 1.0842973
417.00000; 1.0040431; 1.0857659; 1.0767234
418.00000; 1.0050085; 1.0665909; 1.0674199
419.00000; 1.0053345; 1.0516726; 1.0581888
420.00000; 1.0056515; 1.0475137; 1.0501209
421.00000; 1.0059466; 1.0481075; 1.0430612
422.00000; 1.0038855; 1.0422127; 1.0360264
423.00000; 0.99946492; 1.0315584; 1.0278036
424.00000; 0.99198751; 1.0247541; 1.0170054
425.00000; 0.98380706; 1.0193899; 1.0019581
426.00000; 0.97402048; 1.0058056; 0.98164661
427.00000; 0.96566578; 0.97737807; 0.95655353
428.00000; 0.95886712; 0.93285553; 0.93143189
429.00000; 0.95676836; 0.88128403; 0.91401875
430.00000; 0.95766275; 0.85396479; 0.91184996
431.00000; 0.96162562; 0.88214438; 0.92785371
432.00000; 0.97234551; 0.94994217; 0.95832217
433.00000; 0.98582644; 1.0106349; 0.99502390
434.00000; 1.0042521; 1.0474602; 1.0295697
435.00000; 1.0237416; 1.0748636; 1.0566844
436.00000; 1.0438286; 1.0953995; 1.0749399
437.00000; 1.0635225; 1.0971481; 1.0867997
438.00000; 1.0820970; 1.0858180; 1.0962790
439.00000; 1.0991434; 1.0853864; 1.1077192
440.00000; 1.1153889; 1.1072633; 1.1232755
441.00000; 1.1309133; 1.1410820; 1.1419501
442.00000; 1.1450967; 1.1705755; 1.1608386
443.00000; 1.1614631; 1.1867758; 1.1775962
444.00000; 1.1792814; 1.1913360; 1.1921396
445.00000; 1.1986362; 1.1937700; 1.2064093
446.00000; 1.2153870; 1.2058554; 1.2226188
447.00000; 1.2287147; 1.2299965; 1.2412190
448.00000; 1.2424558; 1.2585306; 1.2609781
449.00000; 1.2556441; 1.2858138; 1.2785403
450.00000; 1.2672599; 1.3076171; 1.2908575
451.00000; 1.2774081; 1.3121186; 1.2968499
452.00000; 1.2872978; 1.2967013; 1.2982376
453.00000; 1.2916763; 1.2806306; 1.2985311
454.00000; 1.2951728; 1.2823407; 1.3006845
455.00000; 1.2972843; 1.2988924; 1.3052665
456.00000; 1.3014077; 1.3151772; 1.3106467
457.00000; 1.3059445; 1.3203611; 1.3147568
458.00000; 1.3115990; 1.3158201; 1.3168428
459.00000; 1.3152257; 1.3110322; 1.3173862
460.00000; 1.3178064; 1.3114363; 1.3173976
461.00000; 1.3220893; 1.3139898; 1.3175432
462.00000; 1.3248702; 1.3145386; 1.3180675
463.00000; 1.3254140; 1.3134078; 1.3191527
464.00000; 1.3257522; 1.3134131; 1.3210910
465.00000; 1.3250977; 1.3162309; 1.3240734
466.00000; 1.3207755; 1.3218507; 1.3278861
467.00000; 1.3184118; 1.3290369; 1.3318482
468.00000; 1.3171175; 1.3349670; 1.3353310
469.00000; 1.3176767; 1.3362492; 1.3379907
470.00000; 1.3193960; 1.3343193; 1.3401521
471.00000; 1.3222321; 1.3344948; 1.3425254
472.00000; 1.3262952; 1.3379997; 1.3457129
473.00000; 1.3311911; 1.3427458; 1.3498436
474.00000; 1.3391305; 1.3490314; 1.3545089
475.00000; 1.3461763; 1.3561067; 1.3589383
476.00000; 1.3527887; 1.3613797; 1.3622968
477.00000; 1.3581231; 1.3639918; 1.3639918
478.00000; 1.3620571; 1.3629100; 1.3638845
479.00000; 1.3639736; 1.3584939; 1.3619848
480.00000; 1.3639918; 1.3552478; 1.3579847
481.00000; 1.3620253; 1.3552440; 1.3507752
482.00000; 1.3544790; 1.3527680; 1.3388057
483.00000; 1.3444142; 1.3380528; 1.3214838
484.00000; 1.3328045; 1.3055884; 1.3007397
485.00000; 1.3174709; 1.2627973; 1.2812009
486.00000; 1.3044628; 1.2324127; 1.2681883
487.00000; 1.2948692; 1.2333394; 1.2646755
488.00000; 1.2951760; 1.2577173; 1.2695331
489.00000; 1.3001425; 1.2835268; 1.2789438
490.00000; 1.3132759; 1.2957283; 1.2889107
491.00000; 1.3232572; 1.2948754; 1.2975458
492.00000; 1.3310506; 1.2945165; 1.3048918
493.00000; 1.3363753; 1.3048797; 1.3111508
494.00000; 1.3416495; 1.3203781; 1.3153270
495.00000; 1.3466013; 1.3285061; 1.3155515
496.00000; 1.3473665; 1.3224707; 1.3105691
497.00000; 1.3460484; 1.3048394; 1.3009103
498.00000; 1.3393586; 1.2843458; 1.2889577
499.00000; 1.3323332; 1.2675243; 1.2774221
500.00000; 1.3251029; 1.2560393; 1.2690172
501.00000; 1.3213068; 1.2506855; 1.2653307
502.00000; 1.3189456; 1.2528453; 1.2667462
503.00000; 1.3188511; 1.2611610; 1.2724551
504.00000; 1.3205176; 1.2747680; 1.2806263
505.00000; 1.3233350; 1.2915519; 1.2889157
506.00000; 1.3279990; 1.3022029; 1.2953353
507.00000; 1.3322655; 1.3010246; 1.2989976
508.00000; 1.3361172; 1.2962205; 1.3000703
509.00000; 1.3364299; 1.2963533; 1.2989320
510.00000; 1.3350724; 1.2991117; 1.2952653
511.00000; 1.3306493; 1.2973275; 1.2880748
512.00000; 1.3219870; 1.2863479; 1.2763527
513.00000; 1.3117290; 1.2676851; 1.2598292
514.00000; 1.2997305; 1.2464478; 1.2394279
515.00000; 1.2872790; 1.2210330; 1.2175718
516.00000; 1.2744402; 1.1868522; 1.1982198
517.00000; 1.2667651; 1.1554509; 1.1859793
518.00000; 1.2630454; 1.1487238; 1.1840599
519.00000; 1.2666086; 1.1707301; 1.1923696
520.00000; 1.2765440; 1.2047620; 1.2073789
521.00000; 1.2889537; 1.2326660; 1.2236723
522.00000; 1.3031079; 1.2484924; 1.2364473
523.00000; 1.3136030; 1.2559328; 1.2431568
524.00000; 1.3205684; 1.2551878; 1.2440498
525.00000; 1.3230520; 1.2408912; 1.2418748
526.00000; 1.3251259; 1.2208633; 1.2406370
527.00000; 1.3270943; 1.2179782; 1.2433928
528.00000; 1.3316913; 1.2395593; 1.2502227
529.00000; 1.3376544; 1.2667020; 1.2580657
530.00000; 1.3456363; 1.2809364; 1.2632945
531.00000; 1.3512760; 1.2758050; 1.2640450
532.00000; 1.3545793; 1.2565082; 1.2617441
533.00000; 1.3538639; 1.2406964; 1.2596269
534.00000; 1.3525834; 1.2438420; 1.2600532
535.00000; 1.3506730; 1.2602647; 1.2628035
536.00000; 1.3492980; 1.2730134; 1.2655722
537.00000; 1.3479081; 1.2750743; 1.2659483
538.00000; 1.3438735; 1.2684853; 1.2631834
539.00000; 1.3392365; 1.2554391; 1.2586544
540.00000; 1.3340094; 1.2420549; 1.2547101
541.00000; 1.3316112; 1.2385335; 1.2534452
542.00000; 1.3312540; 1.2461267; 1.2553367
543.00000; 1.3351612; 1.2573506; 1.2591590
544.00000; 1.3382680; 1.2661519; 1.2628552
545.00000; 1.3408391; 1.2696716; 1.2647262
546.00000; 1.3429449; 1.2670251; 1.2642162
547.00000; 1.3440646; 1.2600921; 1.2619763
548.00000; 1.3442049; 1.2531810; 1.2593257
549.00000; 1.3457926; 1.2500000; 1.2575058
550.00000; 1.3469517; 1.2507474; 1.2570537
551.00000; 1.3464516; 1.2536143; 1.2577597
552.00000; 1.3456118; 1.2570274; 1.2587529
553.00000; 1.3445113; 1.2602652; 1.2588788
554.00000; 1.3417559; 1.2615480; 1.2571444
555.00000; 1.3381827; 1.2574851; 1.2531978
556.00000; 1.3336261; 1.2476234; 1.2476468
557.00000; 1.3264600; 1.2360391; 1.2419355
558.00000; 1.3197166; 1.2274952; 1.2377041
559.00000; 1.3150686; 1.2255988; 1.2359576
560.00000; 1.3127947; 1.2305608; 1.2365104
561.00000; 1.3120747; 1.2374815; 1.2382165
562.00000; 1.3128103; 1.2420466; 1.2395444
563.00000; 1.3129690; 1.2432262; 1.2394314
564.00000; 1.3126341; 1.2391835; 1.2377984
565.00000; 1.3093967; 1.2308255; 1.2354716
566.00000; 1.3055442; 1.2255224; 1.2335586
567.00000; 1.3010641; 1.2275772; 1.2327607
568.00000; 1.2973498; 1.2314572; 1.2331904
569.00000; 1.2942172; 1.2313947; 1.2347197
570.00000; 1.2913433; 1.2300094; 1.2372356
571.00000; 1.2906222; 1.2339249; 1.2405471
572.00000; 1.2930717; 1.2437176; 1.2438830
573.00000; 1.2959615; 1.2511822; 1.2461399
574.00000; 1.2977935; 1.2501892; 1.2465432
575.00000; 1.2963783; 1.2441857; 1.2451923
576.00000; 1.2953940; 1.2392537; 1.2429688
577.00000; 1.2945567; 1.2361754; 1.2409956
578.00000; 1.2956913; 1.2338676; 1.2401277
579.00000; 1.2981384; 1.2340673; 1.2406764
580.00000; 1.3024327; 1.2377631; 1.2422859
581.00000; 1.3074323; 1.2432490; 1.2440699
582.00000; 1.3114068; 1.2477984; 1.2447844
583.00000; 1.3107266; 1.2483860; 1.2433449
584.00000; 1.3045867; 1.2432831; 1.2391982
585.00000; 1.2948037; 1.2345931; 1.2324422
586.00000; 1.2779698; 1.2257942; 1.2237748
587.00000; 1.2596077; 1.2150970; 1.2144901
588.00000; 1.2390289; 1.1991350; 1.2064242
589.00000; 1.2254587; 1.1856810; 1.2014563
590.00000; 1.2164830; 1.1864568; 1.2005541
591.00000; 1.2200334; 1.1983134; 1.2031359
592.00000; 1.2264968; 1.2090727; 1.2074445
593.00000; 1.2351406; 1.2141550; 1.2115208
594.00000; 1.2402324; 1.2158393; 1.2140969
595.00000; 1.2446567; 1.2160963; 1.2147342
596.00000; 1.2480030; 1.2151122; 1.2134970
597.00000; 1.2515827; 1.2121588; 1.2106704
598.00000; 1.2549671; 1.2071906; 1.2067268
599.00000; 1.2575533; 1.2009577; 1.2024056
600.00000; 1.2596106; 1.1942013; 1.1987050
601.00000; 1.2610642; 1.1888711; 1.1964460
602.00000; 1.2639375; 1.1885714; 1.1960501
603.00000; 1.2668766; 1.1939767; 1.1970527
604.00000; 1.2699097; 1.2004761; 1.1982877
605.00000; 1.2713199; 1.2027928; 1.1984666
606.00000; 1.2716474; 1.2002609; 1.1967840
607.00000; 1.2688136; 1.1950877; 1.1931318
608.00000; 1.2645259; 1.1886572; 1.1878822
609.00000; 1.2589826; 1.1817750; 1.1815140
610.00000; 1.2547429; 1.1751954; 1.1743905
611.00000; 1.2501635; 1.1682736; 1.1668807
612.00000; 1.2448301; 1.1592661; 1.1592653
613.00000; 1.2378643; 1.1493149; 1.1523650
614.00000; 1.2307863; 1.1415621; 1.1471849
615.00000; 1.2259479; 1.1368162; 1.1446867
616.00000; 1.2240096; 1.1359367; 1.1453398
617.00000; 1.2243332; 1.1420150; 1.1487116
618.00000; 1.2269207; 1.1534942; 1.1533739
619.00000; 1.2273734; 1.1635092; 1.1573290
620.00000; 1.2234535; 1.1674552; 1.1588218
621.00000; 1.2177277; 1.1645886; 1.1571150
622.00000; 1.2109766; 1.1562317; 1.1526305
623.00000; 1.2034450; 1.1455104; 1.1467286
624.00000; 1.1982126; 1.1362094; 1.1409773
625.00000; 1.1951434; 1.1313884; 1.1364659
626.00000; 1.1958963; 1.1309316; 1.1334733
627.00000; 1.1969654; 1.1315054; 1.1316241
628.00000; 1.1982152; 1.1309134; 1.1303512
629.00000; 1.1999568; 1.1294194; 1.1293199
630.00000; 1.2017437; 1.1273568; 1.1285649
631.00000; 1.2049425; 1.1256474; 1.1283317
632.00000; 1.2087329; 1.1262195; 1.1288017
633.00000; 1.2130736; 1.1290030; 1.1299461
634.00000; 1.2165095; 1.1313400; 1.1315408
635.00000; 1.2194878; 1.1323861; 1.1332811
636.00000; 1.2215253; 1.1343120; 1.1348029
637.00000; 1.2221246; 1.1378253; 1.1356566
638.00000; 1.2222917; 1.1395753; 1.1354148
639.00000; 1.2235097; 1.1368575; 1.1339053
640.00000; 1.2250429; 1.1316607; 1.1312943
641.00000; 1.2264195; 1.1275369; 1.1278741
642.00000; 1.2264200; 1.1253826; 1.1235387
643.00000; 1.2235335; 1.1232741; 1.1178989
644.00000; 1.2142321; 1.1178424; 1.1105275
645.00000; 1.2033757; 1.1067940; 1.1015748
646.00000; 1.1925452; 1.0918146; 1.0920688
647.00000; 1.1891869; 1.0781443; 1.0836285
648.00000; 1.1896054; 1.0698016; 1.0777136
649.00000; 1.1939840; 1.0679923; 1.0748237
650.00000; 1.1991853; 1.0722390; 1.0740554
651.00000; 1.2018203; 1.0792102; 1.0732674
652.00000; 1.1974637; 1.0839454; 1.0700133
653.00000; 1.1832824; 1.0806667; 1.0628362
654.00000; 1.1645841; 1.0624551; 1.0528195
655.00000; 1.1479510; 1.0322307; 1.0436791
656.00000; 1.1431987; 1.0112119; 1.0400280
657.00000; 1.1514712; 1.0195270; 1.0445699
658.00000; 1.1693318; 1.0497762; 1.0563659
659.00000; 1.1853409; 1.0791359; 1.0715579
660.00000; 1.1928686; 1.0974453; 1.0857675
661.00000; 1.1947228; 1.1068632; 1.0961867
662.00000; 1.1937009; 1.1096995; 1.1021383
663.00000; 1.1904796; 1.1079330; 1.1046403
664.00000; 1.1868937; 1.1051978; 1.1050749
665.00000; 1.1827664; 1.1038567; 1.1046955
666.00000; 1.1817328; 1.1036872; 1.1041746
667.00000; 1.1810205; 1.1042726; 1.1036064
668.00000; 1.1802590; 1.1049732; 1.1027610
669.00000; 1.1793940; 1.1040843; 1.1014267
670.00000; 1.1783962; 1.1008018; 1.0996488
671.00000; 1.1773165; 1.0969099; 1.0977227
672.00000; 1.1773403; 1.0949001; 1.0959848
673.00000; 1.1787058; 1.0947054; 1.0945167
674.00000; 1.1783154; 1.0943731; 1.0932131
675.00000; 1.1777440; 1.0931569; 1.0918443
676.00000; 1.1774325; 1.0916146; 1.0902314
677.00000; 1.1775408; 1.0898169; 1.0883070
678.00000; 1.1776496; 1.0874217; 1.0860790
679.00000; 1.1751748; 1.0845579; 1.0834984
680.00000; 1.1713249; 1.0820144; 1.0802065
681.00000; 1.1654833; 1.0802931; 1.0752071
682.00000; 1.1521564; 1.0783692; 1.0668182
683.00000; 1.1332794; 1.0730359; 1.0527235
684.00000; 1.1005092; 1.0581288; 1.0316769
685.00000; 1.0584523; 1.0250739; 1.0048184
686.00000; 1.0114161; 0.97404056; 0.97641529
687.00000; 0.99606132; 0.92684174; 0.95247413
688.00000; 0.99482211; 0.90878594; 0.93773306
689.00000; 1.0129062; 0.91885851; 0.93318199
690.00000; 1.0286543; 0.93819372; 0.93605369
691.00000; 1.0410188; 0.95276642; 0.94213302
692.00000; 1.0430596; 0.95744909; 0.94841201
693.00000; 1.0470637; 0.95503285; 0.95413570
694.00000; 1.0523259; 0.95447786; 0.96017041
695.00000; 1.0659491; 0.96351709; 0.96693583
696.00000; 1.0743523; 0.98016504; 0.97354427
697.00000; 1.0749630; 0.99337635; 0.97815356
698.00000; 1.0667860; 0.99417477; 0.97942329
699.00000; 1.0578398; 0.98438445; 0.97769805
700.00000; 1.0548870; 0.97251416; 0.97493329
701.00000; 1.0586883; 0.96599844; 0.97349354
702.00000; 1.0673226; 0.96847935; 0.97479782
703.00000; 1.0774018; 0.97805125; 0.97869932
704.00000; 1.0855207; 0.98840743; 0.98411364
705.00000; 1.0907832; 0.99468965; 0.98968131
706.00000; 1.0953473; 0.99801503; 0.99456765
707.00000; 1.0994245; 1.0013350; 0.99847140
708.00000; 1.1019903; 1.0050936; 1.0012522
709.00000; 1.1029255; 1.0081029; 1.0025644
710.00000; 1.1026114; 1.0092917; 1.0016713
711.00000; 1.0964314; 1.0078982; 0.99733411
712.00000; 1.0843644; 1.0035580; 0.98770985
713.00000; 1.0625829; 0.99509240; 0.97072642
714.00000; 1.0151255; 0.97739594; 0.94417289
715.00000; 0.95709606; 0.94187315; 0.90831152
716.00000; 0.88382247; 0.88377031; 0.86683910
717.00000; 0.83538158; 0.81439427; 0.82697386
718.00000; 0.80633902; 0.75970399; 0.79692407
719.00000; 0.83926778; 0.74159164; 0.78184546
720.00000; 0.87142028; 0.76302893; 0.78092046
721.00000; 0.89782052; 0.80334595; 0.78789288
722.00000; 0.88725152; 0.82874802; 0.79494365
723.00000; 0.86663321; 0.82325908; 0.79713428
724.00000; 0.85438857; 0.80194221; 0.79427101
725.00000; 0.85119979; 0.78671737; 0.78930887
726.00000; 0.85559465; 0.78308317; 0.78571632
727.00000; 0.86088250; 0.78495802; 0.78571890
728.00000; 0.86999534; 0.78796218; 0.79034833
729.00000; 0.88651682; 0.79332663; 0.80013918
730.00000; 0.91597574; 0.80537053; 0.81525781
731.00000; 0.95000474; 0.82802174; 0.83494071
732.00000; 0.98401260; 0.85997117; 0.85705124
733.00000; 1.0057286; 0.89210958; 0.87852349
734.00000; 1.0165820; 0.91376288; 0.89644916
735.00000; 1.0195109; 0.92303634; 0.90991099
736.00000; 1.0228792; 0.92618315; 0.91910165
737.00000; 1.0282074; 0.92957500; 0.92541000
738.00000; 1.0335628; 0.93366766; 0.93031149
739.00000; 1.0394592; 0.93728546; 0.93487907
740.00000; 1.0480263; 0.94090829; 0.93973698
741.00000; 1.0563299; 0.94563056; 0.94512734
742.00000; 1.0644118; 0.95265039; 0.95091065
743.00000; 1.0688692; 0.96094498; 0.95659493
744.00000; 1.0721216; 0.96737300; 0.96147096
745.00000; 1.0732175; 0.97124031; 0.96506573
746.00000; 1.0716832; 0.97336644; 0.96703463
747.00000; 1.0687560; 0.97346408; 0.96744106
748.00000; 1.0637676; 0.97123814; 0.96666941
749.00000; 1.0603897; 0.96791612; 0.96530623
750.00000; 1.0586479; 0.96529960; 0.96391491
751.00000; 1.0590560; 0.96432039; 0.96272442
752.00000; 1.0593772; 0.96489254; 0.96127620
753.00000; 1.0588404; 0.96612819; 0.95800339
754.00000; 1.0527181; 0.96620516; 0.94983380
755.00000; 1.0394359; 0.96307013; 0.93151024
756.00000; 0.97806282; 0.95258748; 0.89680505
757.00000; 0.85441196; 0.91933218; 0.84120038
758.00000; 0.66520053; 0.83489632; 0.76636544
759.00000; 0.52871549; 0.69296399; 0.68291120
760.00000; 0.44464031; 0.54933613; 0.60795983
761.00000; 0.47484135; 0.47671716; 0.55791176
762.00000; 0.52935002; 0.48054938; 0.54144532
763.00000; 0.59865887; 0.51933494; 0.55758109
764.00000; 0.70329316; 0.57357361; 0.59820546
765.00000; 0.80264883; 0.64481442; 0.65419244
766.00000; 0.89630625; 0.72433573; 0.71544719
767.00000; 0.94900053; 0.79757613; 0.77366304
768.00000; 0.98753367; 0.85345581; 0.82289858
769.00000; 1.0040056; 0.88874825; 0.86022270
770.00000; 1.0126563; 0.90761011; 0.88564099
771.00000; 1.0170628; 0.91639700; 0.90119792
772.00000; 1.0175591; 0.91993518; 0.90974941
773.00000; 1.0179241; 0.92075034; 0.91398670
774.00000; 1.0182544; 0.92020553; 0.91593643
775.00000; 1.0176157; 0.92023649; 0.91682682
776.00000; 1.0165715; 0.92162981; 0.91720358
777.00000; 1.0147846; 0.92272548; 0.91711248
778.00000; 1.0134376; 0.92221574; 0.91643002
779.00000; 1.0122767; 0.92038458; 0.91507405
780.00000; 1.0108974; 0.91807860; 0.91305918
781.00000; 1.0085184; 0.91577065; 0.91042463
782.00000; 1.0049565; 0.91297026; 0.90715033
783.00000; 1.0009307; 0.90929773; 0.90312858
784.00000; 0.99560960; 0.90506298; 0.89818818
785.00000; 0.98696366; 0.90003331; 0.89223005
786.00000; 0.97593002; 0.89326846; 0.88510022
787.00000; 0.96357887; 0.88439862; 0.87709817
788.00000; 0.95384085; 0.87389974; 0.86881613
789.00000; 0.94650275; 0.86356863; 0.86107722
790.00000; 0.94246737; 0.85570324; 0.85464788
791.00000; 0.94100074; 0.85130672; 0.84993398
792.00000; 0.94035111; 0.84985573; 0.84685740
793.00000; 0.94065119; 0.84995917; 0.84499940
794.00000; 0.93971804; 0.84957152; 0.84389928
795.00000; 0.93806118; 0.84769821; 0.84326118
796.00000; 0.94067686; 0.84645396; 0.84286757
797.00000; 0.94013540; 0.84829572; 0.84240340
798.00000; 0.93509852; 0.85066430; 0.84139311
799.00000; 0.92872644; 0.84894647; 0.83949555
800.00000; 0.92284350; 0.84341110; 0.83688305
