wl (nm); Emeas; Emod_sc - Retrieved values (SS = -1.009 nm, FWHM =  1.902 nm); Emod_sc - Nominal values (SS = 0 nm, FWHM =  1.000 nm)
805.91782; 0.00031029635; 0.00031029635; 0.00031029635
806.15342; 0.00030937579; 0.00031016260; 0.00030956147
806.38902; 0.00030877306; 0.00030978276; 0.00030870112
806.62462; 0.00030837502; 0.00030917008; 0.00030772080
806.86022; 0.00030725517; 0.00030838435; 0.00030662169
807.09582; 0.00030519003; 0.00030770909; 0.00030541573
807.33142; 0.00030450494; 0.00030735825; 0.00030413590
807.56702; 0.00030419501; 0.00030712412; 0.00030283838
807.80262; 0.00030273394; 0.00030654253; 0.00030159665
808.03822; 0.00030124684; 0.00030539642; 0.00030048706
808.27382; 0.00029963706; 0.00030399377; 0.00029956688
808.50942; 0.00029856621; 0.00030284516; 0.00029884798
808.74502; 0.00029907071; 0.00030199100; 0.00029827950
808.98062; 0.00029924082; 0.00030092915; 0.00029775087
809.21622; 0.00029895647; 0.00029944631; 0.00029715263
809.45182; 0.00029822534; 0.00029820109; 0.00029631154
809.68742; 0.00029718710; 0.00029810582; 0.00029517942
809.92302; 0.00029728092; 0.00029920670; 0.00029374815
810.15862; 0.00029691099; 0.00030040965; 0.00029205059
810.39422; 0.00029555693; 0.00030062914; 0.00029011702
810.62982; 0.00029361376; 0.00029937417; 0.00028793901
810.86542; 0.00029181114; 0.00029718956; 0.00028545902
811.10102; 0.00029083461; 0.00029506150; 0.00028259405
811.33662; 0.00028955269; 0.00029367244; 0.00027928279
811.57222; 0.00028606157; 0.00029284597; 0.00027553411
811.80782; 0.00028119028; 0.00029183857; 0.00027145300
812.04342; 0.00027732993; 0.00029034722; 0.00026722343
812.27902; 0.00027485599; 0.00028867602; 0.00026305397
812.51462; 0.00027288961; 0.00028662529; 0.00025910876
812.75022; 0.00027094174; 0.00028310853; 0.00025546272
812.98582; 0.00027037977; 0.00027772577; 0.00025210436
813.22142; 0.00026786626; 0.00027212858; 0.00024898072
813.45702; 0.00026492547; 0.00026859610; 0.00024605135
813.69262; 0.00026220877; 0.00026741701; 0.00024331818
813.92822; 0.00025956218; 0.00026687360; 0.00024081873
814.16382; 0.00025908406; 0.00026546044; 0.00023860248
814.39942; 0.00025769937; 0.00026283756; 0.00023671721
814.63502; 0.00025405379; 0.00025941189; 0.00023521720
814.87062; 0.00024981352; 0.00025621436; 0.00023417413
815.10622; 0.00024821453; 0.00025444171; 0.00023366082
815.34182; 0.00024896009; 0.00025436796; 0.00023370174
815.57742; 0.00025116369; 0.00025471574; 0.00023421734
815.81302; 0.00025413055; 0.00025345389; 0.00023501847
816.04862; 0.00025548806; 0.00025021927; 0.00023587116
816.28422; 0.00025305408; 0.00024758723; 0.00023660595
816.51982; 0.00024918718; 0.00024845147; 0.00023719927
816.75542; 0.00024858274; 0.00025280897; 0.00023776956
816.99102; 0.00024904192; 0.00025787470; 0.00023849037
817.22662; 0.00025072309; 0.00026006753; 0.00023948345
817.46222; 0.00025254229; 0.00025762038; 0.00024076924
817.69782; 0.00025360180; 0.00025296556; 0.00024230421
817.93342; 0.00025228769; 0.00025089669; 0.00024407093
818.16902; 0.00025066099; 0.00025328613; 0.00024614489
818.40462; 0.00024869230; 0.00025758155; 0.00024867883
818.64022; 0.00025210676; 0.00026062280; 0.00025180135
818.87582; 0.00025861116; 0.00026165296; 0.00025548152
819.11142; 0.00026417283; 0.00026138850; 0.00025944212
819.34702; 0.00026725612; 0.00026039789; 0.00026317034
819.58262; 0.00026823024; 0.00025969086; 0.00026593141
819.81822; 0.00026742592; 0.00026157578; 0.00026737289
820.05382; 0.00026526180; 0.00026774389; 0.00026687823
820.28942; 0.00026302005; 0.00027644026; 0.00026420322
820.52502; 0.00026033940; 0.00028314461; 0.00025937926
820.76062; 0.00025535039; 0.00028573015; 0.00025274783
820.99622; 0.00024741779; 0.00028460454; 0.00024500189
821.23182; 0.00023696070; 0.00028219991; 0.00023716866
821.46742; 0.00022709839; 0.00027955814; 0.00023048685
821.70302; 0.00022499699; 0.00027572430; 0.00022615127
821.93862; 0.00022953195; 0.00026908063; 0.00022499699
822.17422; 0.00023808133; 0.00025848642; 0.00022724465
822.40982; 0.00024839060; 0.00024455991; 0.00023244257
822.64542; 0.00025750355; 0.00023130894; 0.00023961179
822.88102; 0.00026031313; 0.00022499699; 0.00024755012
823.11662; 0.00026286758; 0.00022927812; 0.00025513562
823.35222; 0.00026609188; 0.00024170983; 0.00026154150
823.58782; 0.00026801243; 0.00025591500; 0.00026632177
823.82342; 0.00026795946; 0.00026672863; 0.00026940121
824.05902; 0.00026674540; 0.00027319299; 0.00027100477
824.29462; 0.00026459847; 0.00027756004; 0.00027155362
824.53022; 0.00026340516; 0.00028184341; 0.00027151800
824.76582; 0.00026416884; 0.00028540689; 0.00027126047
825.00142; 0.00026647848; 0.00028603859; 0.00027091415
825.23702; 0.00026904853; 0.00028294274; 0.00027036459
825.47262; 0.00026951402; 0.00027815093; 0.00026935629
825.70822; 0.00026640607; 0.00027509941; 0.00026767742
825.94382; 0.00026145479; 0.00027589458; 0.00026532638
826.17942; 0.00025719912; 0.00027983085; 0.00026256304
826.41502; 0.00025485890; 0.00028413255; 0.00025982201
826.65062; 0.00025566258; 0.00028559451; 0.00025753705
826.88622; 0.00025713716; 0.00028224059; 0.00025598051
827.12182; 0.00025828709; 0.00027494877; 0.00025519823
827.35742; 0.00025758036; 0.00026738901; 0.00025505612
827.59302; 0.00025808081; 0.00026327830; 0.00025534581
827.82862; 0.00025763464; 0.00026359966; 0.00025588097
828.06422; 0.00025855319; 0.00026649929; 0.00025653681
828.29982; 0.00026142273; 0.00026908935; 0.00025724142
828.53542; 0.00026245920; 0.00026951964; 0.00025794990
828.77102; 0.00026319881; 0.00026835298; 0.00025862961
829.00662; 0.00026342013; 0.00026764747; 0.00025925711
829.24222; 0.00026378343; 0.00026857382; 0.00025981435
829.47782; 0.00026469775; 0.00027057924; 0.00026027735
829.71342; 0.00026603395; 0.00027216335; 0.00026059936
829.94902; 0.00026657495; 0.00027210514; 0.00026077543
830.18462; 0.00026619219; 0.00027087804; 0.00026078512
830.42022; 0.00026516130; 0.00027049036; 0.00026068272
830.65582; 0.00026371042; 0.00027196219; 0.00026057514
830.89142; 0.00026356551; 0.00027419948; 0.00026058180
831.12702; 0.00026438376; 0.00027499706; 0.00026078521
831.36262; 0.00026504509; 0.00027355271; 0.00026120617
831.59822; 0.00026486735; 0.00027099690; 0.00026182192
831.83382; 0.00026534664; 0.00026937563; 0.00026260975
832.06942; 0.00026518456; 0.00026998742; 0.00026358323
832.30502; 0.00026522906; 0.00027214758; 0.00026479182
832.54062; 0.00026746334; 0.00027391992; 0.00026628293
832.77622; 0.00027091045; 0.00027425846; 0.00026805023
833.01182; 0.00027226611; 0.00027378128; 0.00027000129
833.24742; 0.00027380185; 0.00027350523; 0.00027196797
833.48302; 0.00027607170; 0.00027383578; 0.00027375738
833.71862; 0.00027798119; 0.00027496575; 0.00027522042
833.95422; 0.00027933245; 0.00027728408; 0.00027630452
834.18982; 0.00027999129; 0.00028064907; 0.00027706540
834.42542; 0.00027936350; 0.00028382431; 0.00027763461
834.66102; 0.00027948153; 0.00028551811; 0.00027816099
834.89662; 0.00028142929; 0.00028559856; 0.00027875322
835.13222; 0.00028283266; 0.00028479828; 0.00027944732
835.36782; 0.00028308787; 0.00028390193; 0.00028020814
835.60342; 0.00028387314; 0.00028352174; 0.00028095733
835.83902; 0.00028465145; 0.00028392828; 0.00028161218
836.07462; 0.00028523134; 0.00028491232; 0.00028211726
836.31022; 0.00028571575; 0.00028612746; 0.00028245966
836.54582; 0.00028573861; 0.00028739145; 0.00028266738
836.78142; 0.00028617785; 0.00028845664; 0.00028279945
837.01702; 0.00028612390; 0.00028884942; 0.00028293375
837.25262; 0.00028545959; 0.00028843736; 0.00028315392
837.48822; 0.00028514110; 0.00028796102; 0.00028353147
837.72382; 0.00028504408; 0.00028820667; 0.00028410319
837.95942; 0.00028753112; 0.00028873834; 0.00028485201
838.19502; 0.00028894181; 0.00028846523; 0.00028570434
838.43062; 0.00029031331; 0.00028745439; 0.00028654935
838.66622; 0.00029051280; 0.00028709176; 0.00028727437
838.90182; 0.00029066344; 0.00028824775; 0.00028780061
839.13742; 0.00029172349; 0.00029020704; 0.00028810395
839.37302; 0.00029261917; 0.00029176489; 0.00028821546
839.60862; 0.00029178477; 0.00029258537; 0.00028820448
839.84422; 0.00029095272; 0.00029299616; 0.00028815391
840.07982; 0.00029080620; 0.00029311074; 0.00028813601
840.31542; 0.00029085270; 0.00029277899; 0.00028819429
840.55102; 0.00029188077; 0.00029213556; 0.00028834216
840.78662; 0.00029290296; 0.00029166010; 0.00028855368
841.02222; 0.00029286863; 0.00029160695; 0.00028877146
841.25782; 0.00029213306; 0.00029173181; 0.00028892233
841.49342; 0.00029136065; 0.00029176167; 0.00028894141
841.72902; 0.00029169832; 0.00029186938; 0.00028879963
841.96462; 0.00029026650; 0.00029236881; 0.00028852321
842.20022; 0.00028890136; 0.00029315154; 0.00028819518
842.43582; 0.00028817055; 0.00029378749; 0.00028793371
842.67142; 0.00028774624; 0.00029395069; 0.00028785466
842.90702; 0.00028990352; 0.00029349133; 0.00028803303
